# /home/xozidok/work/codes/contra/contra 0 1 1 1 0 9.86 0 0.075 0.013 0 1
# Standard model of Adiabatic Contraction
# Dark matter profile: Navarro, Frenk & White (1997) model, c=9.86
# Baryon distribution: Exponential model, fb=0.075 rb=0.013
# Tracer population: Exponential model with isotropic velocity distribution
# los velocity dispersion integrated out to 3 R_vir
#
# r_i       r_f       m_i       m_f       rho_i     rho_f   gam_i gam_f   v_circ  sigma_los
1.000e-04 4.439e-05 3.040e-07 1.539e-06 4.835e+04 2.444e+05 1.002 1.007 1.936e-01 1.447e+00
1.122e-04 4.981e-05 3.826e-07 1.936e-06 4.308e+04 2.177e+05 1.002 1.007 2.050e-01 1.447e+00
1.259e-04 5.589e-05 4.816e-07 2.437e-06 3.839e+04 1.938e+05 1.003 1.008 2.170e-01 1.448e+00
1.413e-04 6.271e-05 6.062e-07 3.065e-06 3.420e+04 1.726e+05 1.003 1.009 2.298e-01 1.449e+00
1.585e-04 7.037e-05 7.630e-07 3.856e-06 3.047e+04 1.537e+05 1.003 1.010 2.433e-01 1.449e+00
1.778e-04 7.896e-05 9.603e-07 4.851e-06 2.715e+04 1.368e+05 1.003 1.011 2.576e-01 1.450e+00
1.995e-04 8.860e-05 1.209e-06 6.102e-06 2.419e+04 1.218e+05 1.004 1.012 2.728e-01 1.451e+00
2.239e-04 9.942e-05 1.521e-06 7.674e-06 2.154e+04 1.083e+05 1.004 1.014 2.888e-01 1.452e+00
2.512e-04 1.116e-04 1.914e-06 9.650e-06 1.919e+04 9.640e+04 1.005 1.016 3.057e-01 1.453e+00
2.818e-04 1.252e-04 2.409e-06 1.213e-05 1.709e+04 8.576e+04 1.006 1.017 3.236e-01 1.454e+00
3.162e-04 1.405e-04 3.031e-06 1.525e-05 1.522e+04 7.627e+04 1.006 1.020 3.425e-01 1.452e+00
3.548e-04 1.576e-04 3.814e-06 1.917e-05 1.356e+04 6.781e+04 1.007 1.022 3.624e-01 1.453e+00
3.981e-04 1.769e-04 4.799e-06 2.409e-05 1.207e+04 6.028e+04 1.008 1.025 3.835e-01 1.453e+00
4.467e-04 1.985e-04 6.038e-06 3.027e-05 1.075e+04 5.356e+04 1.009 1.028 4.058e-01 1.445e+00
5.012e-04 2.227e-04 7.596e-06 3.802e-05 9.571e+03 4.758e+04 1.010 1.031 4.293e-01 1.445e+00
5.623e-04 2.499e-04 9.555e-06 4.775e-05 8.520e+03 4.224e+04 1.011 1.035 4.540e-01 1.445e+00
6.310e-04 2.805e-04 1.202e-05 5.995e-05 7.583e+03 3.749e+04 1.012 1.039 4.802e-01 1.445e+00
7.079e-04 3.148e-04 1.511e-05 7.523e-05 6.749e+03 3.326e+04 1.014 1.043 5.077e-01 1.445e+00
7.943e-04 3.533e-04 1.901e-05 9.437e-05 6.005e+03 2.948e+04 1.016 1.049 5.367e-01 1.441e+00
8.913e-04 3.965e-04 2.390e-05 1.183e-04 5.341e+03 2.612e+04 1.017 1.055 5.672e-01 1.441e+00
1.000e-03 4.450e-04 3.004e-05 1.483e-04 4.750e+03 2.313e+04 1.020 1.061 5.993e-01 1.440e+00
1.122e-03 4.994e-04 3.776e-05 1.858e-04 4.224e+03 2.046e+04 1.022 1.069 6.330e-01 1.439e+00
1.259e-03 5.606e-04 4.746e-05 2.326e-04 3.754e+03 1.808e+04 1.025 1.077 6.684e-01 1.437e+00
1.413e-03 6.292e-04 5.962e-05 2.910e-04 3.336e+03 1.597e+04 1.027 1.086 7.055e-01 1.435e+00
1.585e-03 7.063e-04 7.489e-05 3.638e-04 2.963e+03 1.408e+04 1.031 1.096 7.443e-01 1.433e+00
1.778e-03 7.929e-04 9.405e-05 4.545e-04 2.631e+03 1.240e+04 1.034 1.108 7.848e-01 1.431e+00
1.995e-03 8.902e-04 1.181e-04 5.672e-04 2.335e+03 1.091e+04 1.039 1.120 8.272e-01 1.428e+00
2.239e-03 9.995e-04 1.482e-04 7.072e-04 2.072e+03 9.582e+03 1.043 1.135 8.713e-01 1.424e+00
2.512e-03 1.122e-03 1.859e-04 8.806e-04 1.837e+03 8.401e+03 1.048 1.151 9.171e-01 1.417e+00
2.818e-03 1.260e-03 2.331e-04 1.095e-03 1.627e+03 7.352e+03 1.054 1.168 9.646e-01 1.412e+00
3.162e-03 1.415e-03 2.922e-04 1.360e-03 1.441e+03 6.419e+03 1.060 1.188 1.014e+00 1.406e+00
3.548e-03 1.590e-03 3.660e-04 1.687e-03 1.275e+03 5.592e+03 1.068 1.210 1.064e+00 1.399e+00
3.981e-03 1.786e-03 4.583e-04 2.088e-03 1.127e+03 4.858e+03 1.076 1.234 1.117e+00 1.391e+00
4.467e-03 2.007e-03 5.734e-04 2.579e-03 9.950e+02 4.209e+03 1.084 1.261 1.170e+00 1.382e+00
5.012e-03 2.255e-03 7.169e-04 3.180e-03 8.777e+02 3.634e+03 1.094 1.290 1.224e+00 1.371e+00
5.623e-03 2.534e-03 8.956e-04 3.911e-03 7.734e+02 3.127e+03 1.105 1.323 1.279e+00 1.359e+00
6.310e-03 2.849e-03 1.118e-03 4.798e-03 6.805e+02 2.680e+03 1.117 1.359 1.334e+00 1.345e+00
7.079e-03 3.204e-03 1.394e-03 5.869e-03 5.979e+02 2.286e+03 1.130 1.398 1.390e+00 1.374e+00
7.943e-03 3.604e-03 1.736e-03 7.156e-03 5.245e+02 1.942e+03 1.145 1.441 1.444e+00 1.312e+00
8.913e-03 4.055e-03 2.160e-03 8.697e-03 4.593e+02 1.640e+03 1.162 1.488 1.498e+00 1.292e+00
1.000e-02 4.565e-03 2.684e-03 1.053e-02 4.014e+02 1.378e+03 1.180 1.540 1.551e+00 1.270e+00
1.122e-02 5.141e-03 3.330e-03 1.270e-02 3.500e+02 1.151e+03 1.199 1.595 1.601e+00 1.246e+00
1.259e-02 5.793e-03 4.124e-03 1.525e-02 3.045e+02 9.544e+02 1.221 1.654 1.648e+00 1.220e+00
1.413e-02 6.532e-03 5.099e-03 1.823e-02 2.642e+02 7.861e+02 1.244 1.717 1.692e+00 1.191e+00
1.585e-02 7.370e-03 6.293e-03 2.167e-02 2.286e+02 6.426e+02 1.270 1.784 1.731e+00 1.159e+00
1.778e-02 8.323e-03 7.749e-03 2.564e-02 1.972e+02 5.212e+02 1.298 1.854 1.765e+00 1.123e+00
1.995e-02 9.408e-03 9.520e-03 3.017e-02 1.695e+02 4.193e+02 1.329 1.926 1.794e+00 1.087e+00
2.239e-02 1.065e-02 1.167e-02 3.529e-02 1.452e+02 3.345e+02 1.362 1.999 1.816e+00 1.049e+00
2.512e-02 1.207e-02 1.426e-02 4.104e-02 1.239e+02 2.646e+02 1.397 2.070 1.831e+00 1.008e+00
2.818e-02 1.369e-02 1.738e-02 4.743e-02 1.053e+02 2.077e+02 1.435 2.139 1.838e+00 9.662e-01
3.162e-02 1.557e-02 2.111e-02 5.450e-02 8.903e+01 1.618e+02 1.475 2.201 1.839e+00 9.228e-01
3.548e-02 1.774e-02 2.556e-02 6.224e-02 7.494e+01 1.252e+02 1.518 2.253 1.831e+00 8.783e-01
3.981e-02 2.027e-02 3.083e-02 7.068e-02 6.275e+01 9.633e+01 1.564 2.293 1.817e+00 8.334e-01
4.467e-02 2.323e-02 3.706e-02 7.983e-02 5.227e+01 7.386e+01 1.612 2.318 1.796e+00 8.142e-01
5.012e-02 2.671e-02 4.436e-02 8.974e-02 4.330e+01 5.653e+01 1.661 2.324 1.770e+00 7.679e-01
5.623e-02 3.083e-02 5.288e-02 1.004e-01 3.565e+01 4.328e+01 1.713 2.314 1.740e+00 6.999e-01
6.310e-02 3.574e-02 6.275e-02 1.120e-01 2.918e+01 3.320e+01 1.767 2.290 1.706e+00 6.573e-01
7.079e-02 4.162e-02 7.413e-02 1.246e-01 2.373e+01 2.555e+01 1.822 2.259 1.670e+00 6.166e-01
7.943e-02 4.868e-02 8.717e-02 1.383e-01 1.918e+01 1.974e+01 1.878 2.228 1.634e+00 5.770e-01
8.913e-02 5.714e-02 1.020e-01 1.533e-01 1.540e+01 1.529e+01 1.935 2.203 1.598e+00 5.397e-01
1.000e-01 6.718e-02 1.188e-01 1.697e-01 1.228e+01 1.188e+01 1.993 2.190 1.563e+00 5.045e-01
1.122e-01 7.896e-02 1.376e-01 1.877e-01 9.732e+00 9.231e+00 2.050 2.192 1.530e+00 4.712e-01
1.259e-01 9.259e-02 1.586e-01 2.075e-01 7.660e+00 7.167e+00 2.108 2.205 1.498e+00 4.402e-01
1.413e-01 1.082e-01 1.818e-01 2.291e-01 5.990e+00 5.553e+00 2.164 2.228 1.467e+00 4.108e-01
1.585e-01 1.259e-01 2.074e-01 2.528e-01 4.654e+00 4.290e+00 2.220 2.258 1.438e+00 3.831e-01
1.778e-01 1.458e-01 2.355e-01 2.786e-01 3.594e+00 3.301e+00 2.274 2.292 1.410e+00 3.571e-01
1.995e-01 1.683e-01 2.659e-01 3.065e-01 2.758e+00 2.530e+00 2.326 2.329 1.383e+00 3.326e-01
2.239e-01 1.935e-01 2.988e-01 3.368e-01 2.104e+00 1.931e+00 2.376 2.368 1.356e+00 3.096e-01
2.512e-01 2.218e-01 3.342e-01 3.692e-01 1.596e+00 1.467e+00 2.425 2.407 1.330e+00 2.879e-01
2.818e-01 2.536e-01 3.720e-01 4.040e-01 1.204e+00 1.109e+00 2.471 2.446 1.304e+00 2.674e-01
3.162e-01 2.892e-01 4.122e-01 4.411e-01 9.034e-01 8.352e-01 2.514 2.485 1.278e+00 2.482e-01
3.548e-01 3.293e-01 4.546e-01 4.804e-01 6.747e-01 6.260e-01 2.555 2.523 1.251e+00 2.301e-01
3.981e-01 3.742e-01 4.993e-01 5.220e-01 5.016e-01 4.672e-01 2.594 2.559 1.225e+00 2.131e-01
4.467e-01 4.246e-01 5.462e-01 5.657e-01 3.713e-01 3.473e-01 2.630 2.594 1.198e+00 1.971e-01
5.012e-01 4.812e-01 5.951e-01 6.115e-01 2.738e-01 2.571e-01 2.664 2.629 1.170e+00 1.821e-01
5.623e-01 5.447e-01 6.459e-01 6.593e-01 2.011e-01 1.896e-01 2.692 2.658 1.143e+00 1.680e-01
6.310e-01 6.160e-01 6.985e-01 7.091e-01 1.473e-01 1.394e-01 2.729 2.696 1.115e+00 1.549e-01
7.079e-01 6.960e-01 7.529e-01 7.606e-01 1.074e-01 1.021e-01 2.732 2.700 1.086e+00 1.426e-01
7.943e-01 7.859e-01 8.088e-01 8.138e-01 7.825e-02 7.462e-02 2.816 2.783 1.058e+00 1.311e-01
8.913e-01 8.867e-01 8.662e-01 8.687e-01 5.656e-02 5.411e-02 2.722 2.704 1.029e+00 1.205e-01
1.000e+00 1.000e+00 9.250e-01 9.250e-01 4.198e-02 4.020e-02 2.590 2.580 1.000e+00 1.106e-01
